"Wavelength nm.","T%"
300.00,1.107
301.00,1.192
302.00,1.315
303.00,1.479
304.00,1.644
305.00,1.801
306.00,1.946
307.00,2.156
308.00,2.377
309.00,2.683
310.00,2.934
311.00,3.333
312.00,3.700
313.00,4.178
314.00,4.609
315.00,5.109
316.00,5.622
317.00,6.215
318.00,6.778
319.00,7.422
320.00,8.071
321.00,8.900
322.00,9.729
323.00,10.634
324.00,11.528
325.00,12.509
326.00,13.597
327.00,14.705
328.00,15.916
329.00,17.131
330.00,18.470
331.00,19.887
332.00,21.322
333.00,22.841
334.00,24.360
335.00,25.983
336.00,27.558
337.00,29.218
338.00,30.863
339.00,32.607
340.00,34.344
341.00,36.010
342.00,37.669
343.00,39.221
344.00,40.880
345.00,42.518
346.00,44.161
347.00,45.785
348.00,47.402
349.00,49.280
350.00,51.192
351.00,53.049
352.00,54.755
353.00,56.547
354.00,58.394
355.00,60.196
356.00,61.957
357.00,63.685
358.00,65.487
359.00,67.317
360.00,69.253
361.00,71.137
362.00,72.950
363.00,74.668
364.00,76.321
365.00,78.007
366.00,79.605
367.00,81.198
368.00,82.608
369.00,83.831
370.00,84.938
371.00,85.941
372.00,87.147
373.00,88.106
374.00,88.989
375.00,89.552
376.00,90.223
377.00,90.739
378.00,91.134
379.00,91.394
380.00,91.620
381.00,91.819
382.00,91.905
383.00,91.891
384.00,91.847
385.00,91.848
386.00,91.845
387.00,91.856
388.00,91.741
389.00,91.614
390.00,91.490
391.00,91.444
392.00,91.441
393.00,91.459
394.00,91.434
395.00,91.446
396.00,91.466
397.00,91.602
398.00,91.749
399.00,91.899
400.00,92.078
401.00,92.271
402.00,92.534
403.00,92.792
404.00,93.081
405.00,93.337
406.00,93.638
407.00,93.979
408.00,94.385
409.00,94.713
410.00,95.083
411.00,95.347
412.00,95.644
413.00,95.965
414.00,96.378
415.00,96.785
416.00,97.102
417.00,97.464
418.00,97.876
419.00,98.178
420.00,98.416
421.00,98.565
422.00,98.811
423.00,99.062
424.00,99.203
425.00,99.308
426.00,99.349
427.00,99.434
428.00,99.479
429.00,99.494
430.00,99.460
431.00,99.367
432.00,99.173
433.00,98.950
434.00,98.721
435.00,98.505
436.00,98.270
437.00,98.037
438.00,97.723
439.00,97.397
440.00,97.012
441.00,96.622
442.00,96.195
443.00,95.740
444.00,95.294
445.00,94.822
446.00,94.320
447.00,93.803
448.00,93.278
449.00,92.762
450.00,92.273
451.00,91.799
452.00,91.298
453.00,90.767
454.00,90.219
455.00,89.722
456.00,89.229
457.00,88.719
458.00,88.214
459.00,87.738
460.00,87.270
461.00,86.798
462.00,86.303
463.00,85.925
464.00,85.519
465.00,85.133
466.00,84.699
467.00,84.316
468.00,83.996
469.00,83.652
470.00,83.351
471.00,83.028
472.00,82.794
473.00,82.526
474.00,82.314
475.00,82.096
476.00,81.923
477.00,81.755
478.00,81.608
479.00,81.491
480.00,81.378
481.00,81.264
482.00,81.163
483.00,81.064
484.00,80.981
485.00,80.918
486.00,80.887
487.00,80.856
488.00,80.838
489.00,80.869
490.00,80.939
491.00,81.021
492.00,81.098
493.00,81.196
494.00,81.347
495.00,81.464
496.00,81.590
497.00,81.671
498.00,81.802
499.00,81.976
500.00,82.154
501.00,82.354
502.00,82.543
503.00,82.732
504.00,82.926
505.00,83.156
506.00,83.349
507.00,83.590
508.00,83.775
509.00,84.020
510.00,84.221
511.00,84.493
512.00,84.766
513.00,85.034
514.00,85.261
515.00,85.516
516.00,85.796
517.00,86.052
518.00,86.345
519.00,86.628
520.00,86.930
521.00,87.203
522.00,87.502
523.00,87.816
524.00,88.120
525.00,88.396
526.00,88.671
527.00,88.929
528.00,89.186
529.00,89.420
530.00,89.657
531.00,89.875
532.00,90.093
533.00,90.327
534.00,90.585
535.00,90.870
536.00,91.108
537.00,91.331
538.00,91.545
539.00,91.747
540.00,91.926
541.00,92.058
542.00,92.191
543.00,92.355
544.00,92.544
545.00,92.727
546.00,92.907
547.00,93.031
548.00,93.168
549.00,93.274
550.00,93.378
551.00,93.451
552.00,93.543
553.00,93.643
554.00,93.742
555.00,93.791
556.00,93.865
557.00,93.930
558.00,93.958
559.00,93.972
560.00,93.982
561.00,94.061
562.00,94.143
563.00,94.174
564.00,94.176
565.00,94.137
566.00,94.145
567.00,94.093
568.00,94.062
569.00,94.033
570.00,94.015
571.00,93.987
572.00,93.900
573.00,93.824
574.00,93.723
575.00,93.658
576.00,93.582
577.00,93.506
578.00,93.430
579.00,93.320
580.00,93.234
581.00,93.151
582.00,93.117
583.00,93.045
584.00,92.948
585.00,92.845
586.00,92.738
587.00,92.672
588.00,92.600
589.00,92.540
590.00,92.451
591.00,92.301
592.00,92.157
593.00,91.988
594.00,91.902
595.00,91.826
596.00,91.758
597.00,91.662
598.00,91.558
599.00,91.480
600.00,91.379
601.00,91.269
602.00,91.101
603.00,90.978
604.00,90.842
605.00,90.772
606.00,90.691
607.00,90.647
608.00,90.532
609.00,90.460
610.00,90.303
611.00,90.219
612.00,90.043
613.00,89.977
614.00,89.912
615.00,89.866
616.00,89.802
617.00,89.714
618.00,89.667
619.00,89.563
620.00,89.473
621.00,89.358
622.00,89.271
623.00,89.212
624.00,89.140
625.00,89.090
626.00,89.030
627.00,88.975
628.00,88.919
629.00,88.831
630.00,88.751
631.00,88.712
632.00,88.694
633.00,88.702
634.00,88.638
635.00,88.569
636.00,88.550
637.00,88.511
638.00,88.530
639.00,88.475
640.00,88.489
641.00,88.401
642.00,88.320
643.00,88.228
644.00,88.246
645.00,88.303
646.00,88.344
647.00,88.321
648.00,88.304
649.00,88.257
650.00,88.219
651.00,88.162
652.00,88.185
653.00,88.225
654.00,88.265
655.00,88.271
656.00,88.235
657.00,88.208
658.00,88.189
659.00,88.252
660.00,88.305
661.00,88.288
662.00,88.251
663.00,88.218
664.00,88.262
665.00,88.291
666.00,88.306
667.00,88.273
668.00,88.265
669.00,88.308
670.00,88.398
671.00,88.438
672.00,88.452
673.00,88.438
674.00,88.407
675.00,88.424
676.00,88.447
677.00,88.538
678.00,88.541
679.00,88.531
680.00,88.555
681.00,88.628
682.00,88.761
683.00,88.780
684.00,88.825
685.00,88.825
686.00,88.838
687.00,88.813
688.00,88.803
689.00,88.843
690.00,88.931
691.00,88.991
692.00,89.090
693.00,89.100
694.00,89.124
695.00,89.077
696.00,89.097
697.00,89.153
698.00,89.191
699.00,89.246
700.00,89.331
701.00,89.372
702.00,89.370
703.00,89.287
704.00,89.284
705.00,89.325
706.00,89.354
707.00,89.409
708.00,89.447
709.00,89.510
710.00,89.524
711.00,89.528
712.00,89.535
713.00,89.551
714.00,89.607
715.00,89.648
716.00,89.704
717.00,89.703
718.00,89.740
719.00,89.780
720.00,89.847
721.00,89.889
722.00,89.911
723.00,89.898
724.00,89.823
725.00,89.798
726.00,89.759
727.00,89.858
728.00,89.908
729.00,90.010
730.00,89.996
731.00,89.992
732.00,89.917
733.00,89.943
734.00,89.913
735.00,90.002
736.00,90.068
737.00,90.080
738.00,90.009
739.00,89.966
740.00,90.062
741.00,90.125
742.00,90.157
743.00,90.125
744.00,90.107
745.00,90.107
746.00,90.141
747.00,90.135
748.00,90.163
749.00,90.161
750.00,90.198
751.00,90.162
752.00,90.200
753.00,90.216
754.00,90.215
755.00,90.139
756.00,90.123
757.00,90.082
758.00,90.051
759.00,90.081
760.00,90.076
761.00,90.083
762.00,90.059
763.00,90.113
764.00,90.174
765.00,90.152
766.00,90.138
767.00,90.067
768.00,90.051
769.00,90.001
770.00,90.071
771.00,90.062
772.00,90.080
773.00,90.035
774.00,90.060
775.00,90.123
776.00,90.125
777.00,90.106
778.00,90.035
779.00,90.017
780.00,90.050
781.00,90.081
782.00,90.078
783.00,90.045
784.00,90.071
785.00,90.071
786.00,90.041
787.00,90.011
788.00,90.039
789.00,90.008
790.00,89.930
791.00,89.847
792.00,89.827
793.00,89.847
794.00,89.918
795.00,89.967
796.00,89.970
797.00,89.889
798.00,89.875
799.00,89.908
800.00,89.867
801.00,89.843
802.00,89.726
803.00,89.760
804.00,89.753
805.00,89.799
806.00,89.827
807.00,89.888
808.00,89.874
809.00,89.890
810.00,89.889
811.00,89.815
812.00,89.797
813.00,89.728
814.00,89.757
815.00,89.756
816.00,89.716
817.00,89.783
818.00,89.805
819.00,89.832
820.00,89.803
821.00,89.825
822.00,89.823
823.00,89.848
824.00,89.749
825.00,89.773
826.00,89.795
827.00,89.873
828.00,89.879
829.00,89.807
830.00,89.667
831.00,89.597
832.00,89.582
833.00,89.629
834.00,89.640
835.00,89.606
836.00,89.616
837.00,89.577
838.00,89.630
839.00,89.565
840.00,89.603
841.00,89.620
842.00,89.700
843.00,89.740
844.00,89.751
845.00,89.691
846.00,89.610
847.00,89.591
848.00,89.624
849.00,89.693
850.00,89.740
851.00,89.779
852.00,89.750
853.00,89.738
854.00,89.728
855.00,89.811
856.00,89.835
857.00,89.865
858.00,89.848
859.00,89.839
860.00,89.924
861.00,89.979
862.00,90.022
863.00,90.017
864.00,90.052
865.00,90.150
866.00,90.147
867.00,90.190
868.00,90.179
869.00,90.254
870.00,90.289
871.00,90.329
872.00,90.375
873.00,90.413
874.00,90.386
875.00,90.362
876.00,90.330
877.00,90.393
878.00,90.473
879.00,90.532
880.00,90.594
881.00,90.620
882.00,90.704
883.00,90.769
884.00,90.801
885.00,90.792
886.00,90.856
887.00,90.958
888.00,91.016
889.00,90.998
890.00,91.026
891.00,91.092
892.00,91.172
893.00,91.166
894.00,91.211
895.00,91.218
896.00,91.272
897.00,91.306
898.00,91.320
899.00,91.403
900.00,91.485
901.00,91.595
902.00,91.606
903.00,91.645
904.00,91.696
905.00,91.711
906.00,91.764
907.00,91.813
908.00,91.909
909.00,91.941
910.00,91.973
911.00,92.016
912.00,92.077
913.00,92.124
914.00,92.177
915.00,92.235
916.00,92.253
917.00,92.326
918.00,92.349
919.00,92.432
920.00,92.494
921.00,92.559
922.00,92.641
923.00,92.705
924.00,92.770
925.00,92.870
926.00,92.924
927.00,93.002
928.00,93.033
929.00,93.076
930.00,93.125
931.00,93.163
932.00,93.206
933.00,93.257
934.00,93.301
935.00,93.366
936.00,93.437
937.00,93.521
938.00,93.626
939.00,93.695
940.00,93.737
941.00,93.740
942.00,93.756
943.00,93.811
944.00,93.883
945.00,93.953
946.00,94.003
947.00,94.059
948.00,94.107
949.00,94.185
950.00,94.297
951.00,94.403
952.00,94.473
953.00,94.530
954.00,94.570
955.00,94.626
956.00,94.644
957.00,94.700
958.00,94.742
959.00,94.846
960.00,94.916
961.00,95.040
962.00,95.055
963.00,95.100
964.00,95.100
965.00,95.179
966.00,95.248
967.00,95.337
968.00,95.411
969.00,95.486
970.00,95.546
971.00,95.575
972.00,95.631
973.00,95.651
974.00,95.661
975.00,95.652
976.00,95.679
977.00,95.737
978.00,95.812
979.00,95.862
980.00,95.949
981.00,96.004
982.00,96.059
983.00,96.077
984.00,96.122
985.00,96.202
986.00,96.308
987.00,96.356
988.00,96.392
989.00,96.413
990.00,96.501
991.00,96.576
992.00,96.643
993.00,96.667
994.00,96.701
995.00,96.763
996.00,96.820
997.00,96.878
998.00,96.896
999.00,96.932
1000.00,96.527
1001.00,96.157
1002.00,95.761
1003.00,95.791
1004.00,95.847
1005.00,95.942
1006.00,96.008
1007.00,96.032
1008.00,96.057
1009.00,96.096
1010.00,96.117
1011.00,96.119
1012.00,96.110
1013.00,96.111
1014.00,96.114
1015.00,96.167
1016.00,96.215
1017.00,96.272
1018.00,96.300
1019.00,96.321
1020.00,96.314
1021.00,96.304
1022.00,96.324
1023.00,96.367
1024.00,96.369
1025.00,96.331
1026.00,96.297
1027.00,96.352
1028.00,96.431
1029.00,96.465
1030.00,96.455
1031.00,96.440
1032.00,96.471
1033.00,96.492
1034.00,96.492
1035.00,96.487
1036.00,96.501
1037.00,96.535
1038.00,96.522
1039.00,96.492
1040.00,96.451
1041.00,96.471
1042.00,96.507
1043.00,96.515
1044.00,96.476
1045.00,96.447
1046.00,96.413
1047.00,96.420
1048.00,96.404
1049.00,96.434
1050.00,96.395
1051.00,96.370
1052.00,96.313
1053.00,96.319
1054.00,96.304
1055.00,96.304
1056.00,96.274
1057.00,96.255
1058.00,96.235
1059.00,96.203
1060.00,96.174
1061.00,96.161
1062.00,96.148
1063.00,96.127
1064.00,96.049
1065.00,96.011
1066.00,95.952
1067.00,95.939
1068.00,95.876
1069.00,95.856
1070.00,95.849
1071.00,95.865
1072.00,95.836
1073.00,95.795
1074.00,95.748
1075.00,95.709
1076.00,95.618
1077.00,95.545
1078.00,95.477
1079.00,95.441
1080.00,95.383
1081.00,95.297
1082.00,95.239
1083.00,95.228
1084.00,95.234
1085.00,95.197
1086.00,95.102
1087.00,95.017
1088.00,94.977
1089.00,94.946
1090.00,94.899
1091.00,94.800
1092.00,94.714
1093.00,94.644
1094.00,94.620
1095.00,94.577
1096.00,94.566
1097.00,94.538
1098.00,94.527
1099.00,94.456
1100.00,94.349
1101.00,94.228
1102.00,94.137
1103.00,94.083
1104.00,94.038
1105.00,93.967
1106.00,93.914
1107.00,93.808
1108.00,93.749
1109.00,93.667
1110.00,93.565
1111.00,93.462
1112.00,93.318
1113.00,93.246
1114.00,93.134
1115.00,93.059
1116.00,93.020
1117.00,92.974
1118.00,92.909
1119.00,92.799
1120.00,92.723
1121.00,92.692
1122.00,92.618
1123.00,92.504
1124.00,92.371
1125.00,92.293
1126.00,92.207
1127.00,92.103
1128.00,91.993
1129.00,91.947
1130.00,91.863
1131.00,91.803
1132.00,91.711
1133.00,91.641
1134.00,91.526
1135.00,91.409
1136.00,91.312
1137.00,91.242
1138.00,91.177
1139.00,91.084
1140.00,90.974
1141.00,90.855
1142.00,90.772
1143.00,90.689
1144.00,90.589
1145.00,90.482
1146.00,90.364
1147.00,90.207
1148.00,90.076
1149.00,89.931
1150.00,89.819
1151.00,89.673
1152.00,89.573
1153.00,89.481
1154.00,89.388
1155.00,89.312
1156.00,89.224
1157.00,89.153
1158.00,89.043
1159.00,88.962
1160.00,88.854
1161.00,88.753
1162.00,88.642
1163.00,88.535
1164.00,88.397
1165.00,88.288
1166.00,88.183
1167.00,88.109
1168.00,87.968
1169.00,87.827
1170.00,87.681
1171.00,87.583
1172.00,87.479
1173.00,87.375
1174.00,87.260
1175.00,87.161
1176.00,87.079
1177.00,86.998
1178.00,86.899
1179.00,86.756
1180.00,86.593
1181.00,86.488
1182.00,86.410
1183.00,86.361
1184.00,86.255
1185.00,86.138
1186.00,86.004
1187.00,85.880
1188.00,85.771
1189.00,85.631
1190.00,85.534
1191.00,85.432
1192.00,85.372
1193.00,85.244
1194.00,85.160
1195.00,85.044
1196.00,84.939
1197.00,84.830
1198.00,84.687
1199.00,84.537
1200.00,84.395
1201.00,84.308
1202.00,84.238
1203.00,84.146
1204.00,84.054
1205.00,83.964
1206.00,83.877
1207.00,83.783
1208.00,83.649
1209.00,83.499
1210.00,83.380
1211.00,83.313
1212.00,83.219
1213.00,83.080
1214.00,82.951
1215.00,82.853
1216.00,82.785
1217.00,82.613
1218.00,82.448
1219.00,82.297
1220.00,82.241
1221.00,82.173
1222.00,82.060
1223.00,81.924
1224.00,81.811
1225.00,81.699
1226.00,81.610
1227.00,81.456
1228.00,81.366
1229.00,81.273
1230.00,81.210
1231.00,81.111
1232.00,81.000
1233.00,80.896
1234.00,80.826
1235.00,80.749
1236.00,80.653
1237.00,80.556
1238.00,80.455
1239.00,80.347
1240.00,80.214
1241.00,80.101
1242.00,80.031
1243.00,79.948
1244.00,79.839
1245.00,79.689
1246.00,79.596
1247.00,79.508
1248.00,79.477
1249.00,79.369
1250.00,79.305
1251.00,79.219
1252.00,79.161
1253.00,79.056
1254.00,78.956
1255.00,78.841
1256.00,78.741
1257.00,78.621
1258.00,78.490
1259.00,78.399
1260.00,78.295
1261.00,78.222
1262.00,78.112
1263.00,78.009
1264.00,77.933
1265.00,77.832
1266.00,77.775
1267.00,77.692
1268.00,77.602
1269.00,77.486
1270.00,77.376
1271.00,77.266
1272.00,77.146
1273.00,77.027
1274.00,76.926
1275.00,76.874
1276.00,76.809
1277.00,76.778
1278.00,76.695
1279.00,76.599
1280.00,76.520
1281.00,76.427
1282.00,76.390
1283.00,76.330
1284.00,76.279
1285.00,76.193
1286.00,76.133
1287.00,76.068
1288.00,76.014
1289.00,75.903
1290.00,75.832
1291.00,75.727
1292.00,75.640
1293.00,75.524
1294.00,75.432
1295.00,75.338
1296.00,75.261
1297.00,75.173
1298.00,75.106
1299.00,75.012
1300.00,74.923
1301.00,74.807
1302.00,74.731
1303.00,74.625
1304.00,74.559
1305.00,74.485
1306.00,74.434
1307.00,74.384
1308.00,74.336
1309.00,74.281
1310.00,74.216
1311.00,74.131
1312.00,74.081
1313.00,73.972
1314.00,73.908
1315.00,73.785
1316.00,73.729
1317.00,73.575
1318.00,73.561
1319.00,73.508
1320.00,73.500
1321.00,73.401
1322.00,73.295
1323.00,73.261
1324.00,73.214
1325.00,73.175
1326.00,73.152
1327.00,73.085
1328.00,73.039
1329.00,72.931
1330.00,72.868
1331.00,72.802
1332.00,72.680
1333.00,72.626
1334.00,72.570
1335.00,72.613
1336.00,72.551
1337.00,72.460
1338.00,72.276
1339.00,72.176
1340.00,72.099
1341.00,72.111
1342.00,72.114
1343.00,72.064
1344.00,71.990
1345.00,71.914
1346.00,71.879
1347.00,71.811
1348.00,71.749
1349.00,71.721
1350.00,71.636
1351.00,71.560
1352.00,71.471
1353.00,71.480
1354.00,71.460
1355.00,71.405
1356.00,71.309
1357.00,71.262
1358.00,71.245
1359.00,71.276
1360.00,71.147
1361.00,71.018
1362.00,70.910
1363.00,70.900
1364.00,70.862
1365.00,70.782
1366.00,70.767
1367.00,70.723
1368.00,70.710
1369.00,70.606
1370.00,70.607
1371.00,70.551
1372.00,70.570
1373.00,70.505
1374.00,70.478
1375.00,70.348
1376.00,70.255
1377.00,70.180
1378.00,70.158
1379.00,70.181
1380.00,70.158
1381.00,70.051
1382.00,70.001
1383.00,69.960
1384.00,69.961
1385.00,69.857
1386.00,69.774
1387.00,69.793
1388.00,69.786
1389.00,69.793
1390.00,69.744
1391.00,69.749
1392.00,69.722
1393.00,69.714
1394.00,69.683
1395.00,69.628
1396.00,69.530
1397.00,69.464
1398.00,69.435
1399.00,69.358
1400.00,69.267
