"Wavelength nm.","T%"
300.00,1.863
301.00,1.913
302.00,2.081
303.00,2.298
304.00,2.575
305.00,2.867
306.00,3.150
307.00,3.509
308.00,3.849
309.00,4.260
310.00,4.702
311.00,5.195
312.00,5.723
313.00,6.280
314.00,6.910
315.00,7.595
316.00,8.309
317.00,9.012
318.00,9.802
319.00,10.572
320.00,11.460
321.00,12.398
322.00,13.397
323.00,14.442
324.00,15.485
325.00,16.681
326.00,17.904
327.00,19.226
328.00,20.540
329.00,21.922
330.00,23.425
331.00,24.909
332.00,26.442
333.00,27.898
334.00,29.473
335.00,30.961
336.00,32.478
337.00,33.936
338.00,35.386
339.00,36.819
340.00,38.330
341.00,39.733
342.00,41.126
343.00,42.382
344.00,43.769
345.00,45.064
346.00,46.419
347.00,47.698
348.00,49.099
349.00,50.610
350.00,52.192
351.00,53.670
352.00,55.031
353.00,56.341
354.00,57.729
355.00,59.136
356.00,60.582
357.00,61.944
358.00,63.259
359.00,64.490
360.00,65.781
361.00,66.975
362.00,68.144
363.00,69.242
364.00,70.279
365.00,71.302
366.00,72.140
367.00,72.916
368.00,73.544
369.00,74.074
370.00,74.584
371.00,74.962
372.00,75.345
373.00,75.535
374.00,75.688
375.00,75.707
376.00,75.778
377.00,75.789
378.00,75.754
379.00,75.557
380.00,75.328
381.00,75.089
382.00,74.826
383.00,74.603
384.00,74.315
385.00,74.113
386.00,73.829
387.00,73.624
388.00,73.334
389.00,73.103
390.00,72.872
391.00,72.672
392.00,72.547
393.00,72.405
394.00,72.262
395.00,72.115
396.00,71.969
397.00,71.936
398.00,71.873
399.00,71.843
400.00,71.795
401.00,71.793
402.00,71.798
403.00,71.832
404.00,71.823
405.00,71.844
406.00,71.855
407.00,71.885
408.00,71.932
409.00,71.969
410.00,72.018
411.00,71.996
412.00,71.939
413.00,71.983
414.00,72.044
415.00,72.077
416.00,72.002
417.00,71.925
418.00,71.923
419.00,71.859
420.00,71.776
421.00,71.648
422.00,71.555
423.00,71.451
424.00,71.274
425.00,71.048
426.00,70.823
427.00,70.601
428.00,70.360
429.00,70.093
430.00,69.789
431.00,69.475
432.00,69.129
433.00,68.759
434.00,68.405
435.00,68.042
436.00,67.667
437.00,67.288
438.00,66.888
439.00,66.485
440.00,66.028
441.00,65.558
442.00,65.105
443.00,64.637
444.00,64.167
445.00,63.702
446.00,63.264
447.00,62.808
448.00,62.371
449.00,61.932
450.00,61.535
451.00,61.123
452.00,60.680
453.00,60.228
454.00,59.786
455.00,59.385
456.00,58.992
457.00,58.596
458.00,58.204
459.00,57.827
460.00,57.449
461.00,57.052
462.00,56.656
463.00,56.309
464.00,55.976
465.00,55.675
466.00,55.336
467.00,55.029
468.00,54.714
469.00,54.433
470.00,54.136
471.00,53.862
472.00,53.611
473.00,53.345
474.00,53.078
475.00,52.791
476.00,52.562
477.00,52.325
478.00,52.118
479.00,51.930
480.00,51.743
481.00,51.539
482.00,51.325
483.00,51.142
484.00,50.971
485.00,50.791
486.00,50.606
487.00,50.420
488.00,50.260
489.00,50.113
490.00,49.946
491.00,49.814
492.00,49.663
493.00,49.529
494.00,49.400
495.00,49.257
496.00,49.155
497.00,49.013
498.00,48.897
499.00,48.766
500.00,48.670
501.00,48.563
502.00,48.459
503.00,48.322
504.00,48.200
505.00,48.091
506.00,47.953
507.00,47.830
508.00,47.691
509.00,47.590
510.00,47.478
511.00,47.342
512.00,47.214
513.00,47.087
514.00,46.964
515.00,46.834
516.00,46.686
517.00,46.567
518.00,46.430
519.00,46.299
520.00,46.163
521.00,46.044
522.00,45.928
523.00,45.814
524.00,45.703
525.00,45.590
526.00,45.444
527.00,45.296
528.00,45.140
529.00,45.006
530.00,44.852
531.00,44.701
532.00,44.534
533.00,44.364
534.00,44.231
535.00,44.112
536.00,43.985
537.00,43.835
538.00,43.641
539.00,43.489
540.00,43.321
541.00,43.185
542.00,43.024
543.00,42.855
544.00,42.682
545.00,42.498
546.00,42.332
547.00,42.162
548.00,42.014
549.00,41.847
550.00,41.687
551.00,41.506
552.00,41.343
553.00,41.182
554.00,41.031
555.00,40.857
556.00,40.702
557.00,40.529
558.00,40.352
559.00,40.175
560.00,40.020
561.00,39.868
562.00,39.687
563.00,39.487
564.00,39.291
565.00,39.114
566.00,38.952
567.00,38.780
568.00,38.626
569.00,38.471
570.00,38.314
571.00,38.131
572.00,37.943
573.00,37.788
574.00,37.633
575.00,37.483
576.00,37.318
577.00,37.160
578.00,37.005
579.00,36.828
580.00,36.654
581.00,36.502
582.00,36.365
583.00,36.208
584.00,36.055
585.00,35.920
586.00,35.781
587.00,35.615
588.00,35.448
589.00,35.309
590.00,35.180
591.00,35.025
592.00,34.868
593.00,34.709
594.00,34.579
595.00,34.444
596.00,34.306
597.00,34.163
598.00,34.024
599.00,33.886
600.00,33.755
601.00,33.625
602.00,33.485
603.00,33.361
604.00,33.245
605.00,33.111
606.00,32.961
607.00,32.816
608.00,32.695
609.00,32.590
610.00,32.459
611.00,32.325
612.00,32.184
613.00,32.071
614.00,31.972
615.00,31.859
616.00,31.744
617.00,31.620
618.00,31.508
619.00,31.392
620.00,31.270
621.00,31.166
622.00,31.044
623.00,30.947
624.00,30.833
625.00,30.730
626.00,30.611
627.00,30.487
628.00,30.379
629.00,30.273
630.00,30.172
631.00,30.073
632.00,29.971
633.00,29.882
634.00,29.774
635.00,29.668
636.00,29.556
637.00,29.441
638.00,29.361
639.00,29.270
640.00,29.201
641.00,29.088
642.00,28.976
643.00,28.869
644.00,28.793
645.00,28.736
646.00,28.654
647.00,28.563
648.00,28.464
649.00,28.389
650.00,28.304
651.00,28.220
652.00,28.130
653.00,28.040
654.00,27.951
655.00,27.872
656.00,27.784
657.00,27.698
658.00,27.597
659.00,27.520
660.00,27.448
661.00,27.373
662.00,27.311
663.00,27.224
664.00,27.152
665.00,27.067
666.00,27.004
667.00,26.929
668.00,26.858
669.00,26.800
670.00,26.736
671.00,26.679
672.00,26.599
673.00,26.529
674.00,26.442
675.00,26.370
676.00,26.281
677.00,26.212
678.00,26.144
679.00,26.088
680.00,26.029
681.00,25.970
682.00,25.916
683.00,25.848
684.00,25.790
685.00,25.720
686.00,25.661
687.00,25.579
688.00,25.525
689.00,25.464
690.00,25.424
691.00,25.370
692.00,25.317
693.00,25.255
694.00,25.194
695.00,25.150
696.00,25.076
697.00,25.009
698.00,24.936
699.00,24.882
700.00,24.843
701.00,24.783
702.00,24.753
703.00,24.689
704.00,24.632
705.00,24.560
706.00,24.498
707.00,24.461
708.00,24.403
709.00,24.380
710.00,24.318
711.00,24.290
712.00,24.209
713.00,24.163
714.00,24.098
715.00,24.058
716.00,24.023
717.00,23.974
718.00,23.936
719.00,23.883
720.00,23.850
721.00,23.801
722.00,23.756
723.00,23.693
724.00,23.631
725.00,23.570
726.00,23.543
727.00,23.515
728.00,23.478
729.00,23.436
730.00,23.395
731.00,23.355
732.00,23.304
733.00,23.237
734.00,23.180
735.00,23.152
736.00,23.127
737.00,23.070
738.00,23.018
739.00,22.997
740.00,23.006
741.00,22.980
742.00,22.912
743.00,22.867
744.00,22.824
745.00,22.817
746.00,22.784
747.00,22.740
748.00,22.677
749.00,22.650
750.00,22.604
751.00,22.582
752.00,22.533
753.00,22.515
754.00,22.489
755.00,22.442
756.00,22.403
757.00,22.344
758.00,22.321
759.00,22.289
760.00,22.258
761.00,22.189
762.00,22.136
763.00,22.119
764.00,22.126
765.00,22.100
766.00,22.055
767.00,22.000
768.00,21.994
769.00,21.954
770.00,21.945
771.00,21.910
772.00,21.904
773.00,21.874
774.00,21.859
775.00,21.822
776.00,21.815
777.00,21.759
778.00,21.715
779.00,21.654
780.00,21.630
781.00,21.630
782.00,21.606
783.00,21.566
784.00,21.540
785.00,21.515
786.00,21.507
787.00,21.475
788.00,21.449
789.00,21.438
790.00,21.408
791.00,21.369
792.00,21.321
793.00,21.294
794.00,21.285
795.00,21.262
796.00,21.251
797.00,21.218
798.00,21.194
799.00,21.149
800.00,21.144
801.00,21.111
802.00,21.073
803.00,21.033
804.00,21.035
805.00,21.030
806.00,21.010
807.00,20.984
808.00,20.965
809.00,20.957
810.00,20.953
811.00,20.933
812.00,20.904
813.00,20.862
814.00,20.854
815.00,20.830
816.00,20.796
817.00,20.759
818.00,20.712
819.00,20.692
820.00,20.692
821.00,20.710
822.00,20.691
823.00,20.667
824.00,20.621
825.00,20.620
826.00,20.610
827.00,20.623
828.00,20.641
829.00,20.624
830.00,20.603
831.00,20.539
832.00,20.514
833.00,20.495
834.00,20.528
835.00,20.501
836.00,20.503
837.00,20.460
838.00,20.432
839.00,20.384
840.00,20.347
841.00,20.353
842.00,20.388
843.00,20.381
844.00,20.393
845.00,20.333
846.00,20.305
847.00,20.221
848.00,20.201
849.00,20.231
850.00,20.280
851.00,20.313
852.00,20.233
853.00,20.197
854.00,20.150
855.00,20.193
856.00,20.160
857.00,20.165
858.00,20.133
859.00,20.144
860.00,20.107
861.00,20.058
862.00,20.026
863.00,20.004
864.00,20.042
865.00,20.034
866.00,20.014
867.00,19.995
868.00,19.982
869.00,19.995
870.00,19.979
871.00,19.962
872.00,19.955
873.00,19.973
874.00,19.981
875.00,19.984
876.00,19.912
877.00,19.911
878.00,19.873
879.00,19.906
880.00,19.908
881.00,19.935
882.00,19.923
883.00,19.887
884.00,19.842
885.00,19.834
886.00,19.839
887.00,19.837
888.00,19.803
889.00,19.785
890.00,19.815
891.00,19.817
892.00,19.828
893.00,19.778
894.00,19.768
895.00,19.726
896.00,19.746
897.00,19.769
898.00,19.794
899.00,19.772
900.00,19.732
901.00,19.746
902.00,19.760
903.00,19.782
904.00,19.718
905.00,19.686
906.00,19.684
907.00,19.717
908.00,19.710
909.00,19.686
910.00,19.690
911.00,19.681
912.00,19.673
913.00,19.670
914.00,19.675
915.00,19.678
916.00,19.649
917.00,19.643
918.00,19.635
919.00,19.645
920.00,19.647
921.00,19.653
922.00,19.651
923.00,19.660
924.00,19.656
925.00,19.661
926.00,19.673
927.00,19.653
928.00,19.640
929.00,19.628
930.00,19.659
931.00,19.672
932.00,19.662
933.00,19.640
934.00,19.617
935.00,19.607
936.00,19.612
937.00,19.617
938.00,19.630
939.00,19.617
940.00,19.628
941.00,19.626
942.00,19.645
943.00,19.634
944.00,19.652
945.00,19.644
946.00,19.639
947.00,19.642
948.00,19.626
949.00,19.629
950.00,19.615
951.00,19.631
952.00,19.657
953.00,19.672
954.00,19.669
955.00,19.664
956.00,19.646
957.00,19.649
958.00,19.654
959.00,19.664
960.00,19.676
961.00,19.677
962.00,19.666
963.00,19.664
964.00,19.654
965.00,19.664
966.00,19.657
967.00,19.684
968.00,19.715
969.00,19.738
970.00,19.744
971.00,19.723
972.00,19.721
973.00,19.722
974.00,19.731
975.00,19.734
976.00,19.703
977.00,19.717
978.00,19.714
979.00,19.748
980.00,19.754
981.00,19.760
982.00,19.754
983.00,19.740
984.00,19.751
985.00,19.751
986.00,19.774
987.00,19.781
988.00,19.794
989.00,19.793
990.00,19.812
991.00,19.835
992.00,19.858
993.00,19.851
994.00,19.855
995.00,19.864
996.00,19.876
997.00,19.873
998.00,19.871
999.00,19.873
1000.00,19.817
1001.00,19.746
1002.00,19.674
1003.00,19.675
1004.00,19.697
1005.00,19.719
1006.00,19.721
1007.00,19.695
1008.00,19.704
1009.00,19.700
1010.00,19.725
1011.00,19.738
1012.00,19.765
1013.00,19.780
1014.00,19.782
1015.00,19.791
1016.00,19.819
1017.00,19.835
1018.00,19.828
1019.00,19.818
1020.00,19.832
1021.00,19.866
1022.00,19.900
1023.00,19.919
1024.00,19.932
1025.00,19.915
1026.00,19.900
1027.00,19.908
1028.00,19.932
1029.00,19.953
1030.00,19.960
1031.00,19.976
1032.00,19.995
1033.00,20.009
1034.00,20.015
1035.00,20.033
1036.00,20.051
1037.00,20.067
1038.00,20.077
1039.00,20.074
1040.00,20.086
1041.00,20.097
1042.00,20.130
1043.00,20.149
1044.00,20.170
1045.00,20.175
1046.00,20.183
1047.00,20.179
1048.00,20.194
1049.00,20.214
1050.00,20.233
1051.00,20.261
1052.00,20.268
1053.00,20.286
1054.00,20.274
1055.00,20.274
1056.00,20.293
1057.00,20.318
1058.00,20.341
1059.00,20.359
1060.00,20.377
1061.00,20.405
1062.00,20.403
1063.00,20.429
1064.00,20.436
1065.00,20.468
1066.00,20.475
1067.00,20.507
1068.00,20.520
1069.00,20.535
1070.00,20.533
1071.00,20.548
1072.00,20.571
1073.00,20.599
1074.00,20.631
1075.00,20.633
1076.00,20.631
1077.00,20.625
1078.00,20.642
1079.00,20.689
1080.00,20.727
1081.00,20.755
1082.00,20.751
1083.00,20.764
1084.00,20.795
1085.00,20.828
1086.00,20.831
1087.00,20.842
1088.00,20.869
1089.00,20.889
1090.00,20.914
1091.00,20.907
1092.00,20.929
1093.00,20.956
1094.00,20.996
1095.00,21.021
1096.00,21.036
1097.00,21.059
1098.00,21.080
1099.00,21.092
1100.00,21.103
1101.00,21.116
1102.00,21.141
1103.00,21.156
1104.00,21.182
1105.00,21.202
1106.00,21.221
1107.00,21.232
1108.00,21.246
1109.00,21.265
1110.00,21.290
1111.00,21.307
1112.00,21.335
1113.00,21.390
1114.00,21.399
1115.00,21.423
1116.00,21.410
1117.00,21.460
1118.00,21.482
1119.00,21.508
1120.00,21.524
1121.00,21.529
1122.00,21.546
1123.00,21.553
1124.00,21.606
1125.00,21.640
1126.00,21.678
1127.00,21.700
1128.00,21.721
1129.00,21.749
1130.00,21.768
1131.00,21.782
1132.00,21.797
1133.00,21.812
1134.00,21.858
1135.00,21.886
1136.00,21.916
1137.00,21.910
1138.00,21.932
1139.00,21.958
1140.00,22.009
1141.00,22.035
1142.00,22.055
1143.00,22.071
1144.00,22.088
1145.00,22.097
1146.00,22.101
1147.00,22.108
1148.00,22.122
1149.00,22.144
1150.00,22.173
1151.00,22.219
1152.00,22.264
1153.00,22.297
1154.00,22.305
1155.00,22.324
1156.00,22.348
1157.00,22.383
1158.00,22.406
1159.00,22.420
1160.00,22.448
1161.00,22.472
1162.00,22.519
1163.00,22.544
1164.00,22.548
1165.00,22.554
1166.00,22.569
1167.00,22.616
1168.00,22.645
1169.00,22.683
1170.00,22.682
1171.00,22.711
1172.00,22.725
1173.00,22.788
1174.00,22.794
1175.00,22.810
1176.00,22.836
1177.00,22.886
1178.00,22.934
1179.00,22.958
1180.00,22.989
1181.00,23.003
1182.00,23.021
1183.00,23.044
1184.00,23.072
1185.00,23.097
1186.00,23.122
1187.00,23.163
1188.00,23.179
1189.00,23.183
1190.00,23.212
1191.00,23.241
1192.00,23.305
1193.00,23.310
1194.00,23.359
1195.00,23.376
1196.00,23.408
1197.00,23.445
1198.00,23.471
1199.00,23.496
1200.00,23.502
1201.00,23.527
1202.00,23.557
1203.00,23.612
1204.00,23.635
1205.00,23.653
1206.00,23.671
1207.00,23.701
1208.00,23.740
1209.00,23.758
1210.00,23.784
1211.00,23.811
1212.00,23.815
1213.00,23.847
1214.00,23.860
1215.00,23.910
1216.00,23.915
1217.00,23.963
1218.00,23.977
1219.00,24.012
1220.00,24.051
1221.00,24.075
1222.00,24.098
1223.00,24.107
1224.00,24.150
1225.00,24.202
1226.00,24.232
1227.00,24.271
1228.00,24.281
1229.00,24.314
1230.00,24.339
1231.00,24.354
1232.00,24.386
1233.00,24.399
1234.00,24.467
1235.00,24.501
1236.00,24.545
1237.00,24.566
1238.00,24.578
1239.00,24.605
1240.00,24.636
1241.00,24.649
1242.00,24.667
1243.00,24.693
1244.00,24.713
1245.00,24.712
1246.00,24.745
1247.00,24.808
1248.00,24.862
1249.00,24.881
1250.00,24.897
1251.00,24.942
1252.00,24.981
1253.00,24.996
1254.00,25.010
1255.00,25.047
1256.00,25.120
1257.00,25.154
1258.00,25.161
1259.00,25.166
1260.00,25.176
1261.00,25.193
1262.00,25.212
1263.00,25.249
1264.00,25.278
1265.00,25.310
1266.00,25.340
1267.00,25.388
1268.00,25.438
1269.00,25.485
1270.00,25.514
1271.00,25.532
1272.00,25.544
1273.00,25.567
1274.00,25.617
1275.00,25.665
1276.00,25.713
1277.00,25.749
1278.00,25.765
1279.00,25.783
1280.00,25.792
1281.00,25.841
1282.00,25.886
1283.00,25.912
1284.00,25.936
1285.00,25.934
1286.00,25.970
1287.00,26.018
1288.00,26.076
1289.00,26.118
1290.00,26.110
1291.00,26.141
1292.00,26.156
1293.00,26.194
1294.00,26.192
1295.00,26.208
1296.00,26.230
1297.00,26.301
1298.00,26.326
1299.00,26.375
1300.00,26.378
1301.00,26.424
1302.00,26.443
1303.00,26.454
1304.00,26.474
1305.00,26.508
1306.00,26.580
1307.00,26.610
1308.00,26.642
1309.00,26.629
1310.00,26.698
1311.00,26.736
1312.00,26.780
1313.00,26.764
1314.00,26.776
1315.00,26.794
1316.00,26.838
1317.00,26.881
1318.00,26.960
1319.00,26.986
1320.00,26.987
1321.00,26.964
1322.00,26.943
1323.00,26.983
1324.00,27.032
1325.00,27.113
1326.00,27.153
1327.00,27.158
1328.00,27.158
1329.00,27.191
1330.00,27.232
1331.00,27.293
1332.00,27.268
1333.00,27.343
1334.00,27.374
1335.00,27.442
1336.00,27.424
1337.00,27.452
1338.00,27.456
1339.00,27.496
1340.00,27.492
1341.00,27.543
1342.00,27.550
1343.00,27.586
1344.00,27.599
1345.00,27.670
1346.00,27.726
1347.00,27.745
1348.00,27.765
1349.00,27.765
1350.00,27.842
1351.00,27.826
1352.00,27.877
1353.00,27.877
1354.00,27.950
1355.00,27.937
1356.00,27.981
1357.00,27.979
1358.00,28.067
1359.00,28.046
1360.00,28.058
1361.00,28.019
1362.00,28.056
1363.00,28.121
1364.00,28.159
1365.00,28.186
1366.00,28.161
1367.00,28.199
1368.00,28.299
1369.00,28.363
1370.00,28.377
1371.00,28.386
1372.00,28.422
1373.00,28.468
1374.00,28.467
1375.00,28.501
1376.00,28.537
1377.00,28.526
1378.00,28.552
1379.00,28.598
1380.00,28.662
1381.00,28.676
1382.00,28.658
1383.00,28.715
1384.00,28.736
1385.00,28.806
1386.00,28.827
1387.00,28.918
1388.00,28.917
1389.00,28.947
1390.00,28.894
1391.00,28.933
1392.00,28.897
1393.00,28.949
1394.00,29.001
1395.00,29.054
1396.00,29.056
1397.00,29.080
1398.00,29.147
1399.00,29.161
1400.00,29.133
